# Observation File: surface-outlet.dat column names:
# -----------------------------------------------------------------------------
# Observation Name: time [s]
# -----------------------------------------------------------------------------
# Observation Name: surface-component_concentration
# Region: surface outlet
# Reduction: point
# Variable: surface-total_component_concentration
# Number of Vectors: 6
# =============================================================================
"time [s]" "surface-component_concentration DOM1" "surface-component_concentration O2(aq)" "surface-component_concentration NO3-" "surface-component_concentration HCO3-" "surface-component_concentration H+" "surface-component_concentration N2(aq)"
0.000000000000e+00 1.000000000000e-04 2.654112300517e-04 2.000000000000e-06 1.974773070179e-05 1.458050895536e-05 2.655183879684e-02
2.000000000000e+01 9.965949673569e-05 2.645074961495e-04 1.993189934714e-06 1.968048903413e-05 1.453086184644e-05 2.646142891900e-02
4.000000000000e+01 9.951588619162e-05 2.641292844000e-04 1.990353316097e-06 1.965426254864e-05 1.451196428304e-05 2.642377068623e-02
6.000000000000e+01 9.940061737798e-05 2.638292116597e-04 1.988118763678e-06 1.963574494505e-05 1.449922050201e-05 2.639410592154e-02
8.000000000000e+01 9.929268952690e-05 2.635515352170e-04 1.986066209633e-06 1.962078593251e-05 1.448956455561e-05 2.636685784103e-02
1.000000000000e+02 9.918814408914e-05 2.632857320288e-04 1.984116282426e-06 1.960859212368e-05 1.448240856934e-05 2.634097271521e-02
1.200000000000e+02 9.908533446747e-05 2.630274178320e-04 1.982235880882e-06 1.959882846812e-05 1.447750306752e-05 2.631601109664e-02
1.400000000000e+02 9.898324192308e-05 2.627738749383e-04 1.980404463015e-06 1.959128400883e-05 1.447469018336e-05 2.629170027269e-02
1.600000000000e+02 9.888117525076e-05 2.625232549094e-04 1.978608036766e-06 1.958581241942e-05 1.447385975257e-05 2.626785448705e-02
1.800000000000e+02 9.877865820598e-05 2.622742797384e-04 1.976836908102e-06 1.958230974835e-05 1.447493287893e-05 2.624434504364e-02
2.000000000000e+02 9.867536221858e-05 2.620260632387e-04 1.975084334975e-06 1.958070111320e-05 1.447785210719e-05 2.622108243670e-02
2.200000000000e+02 9.857106107287e-05 2.617779907359e-04 1.973345620631e-06 1.958093173454e-05 1.448257479994e-05 2.619800431360e-02
2.400000000000e+02 9.846559970908e-05 2.615296362349e-04 1.971617489327e-06 1.958296078608e-05 1.448906860235e-05 2.617506718695e-02
2.600000000000e+02 9.835887264003e-05 2.612807051253e-04 1.969897654491e-06 1.958675705270e-05 1.449730821304e-05 2.615224070146e-02
2.800000000000e+02 9.825080899735e-05 2.610309944680e-04 1.968184519378e-06 1.959229599996e-05 1.450727322884e-05 2.612950365990e-02
3.000000000000e+02 9.814136214753e-05 2.607803654176e-04 1.966476969178e-06 1.959955771007e-05 1.451894661794e-05 2.610684126317e-02
3.200000000000e+02 9.803050246722e-05 2.605287240299e-04 1.964774226314e-06 1.960852544249e-05 1.453231365433e-05 2.608424318919e-02
3.400000000000e+02 9.791821230483e-05 2.602760078731e-04 1.963075749475e-06 1.961918462646e-05 1.454736117120e-05 2.606170225251e-02
3.600000000000e+02 9.780448245812e-05 2.600221766615e-04 1.961381162962e-06 1.963152215288e-05 1.456407703539e-05 2.603921346627e-02
3.800000000000e+02 9.768930970524e-05 2.597672056855e-04 1.959690207099e-06 1.964552587389e-05 1.458244977505e-05 2.601677338387e-02
4.000000000000e+02 9.757269507039e-05 2.595110811907e-04 1.958002703330e-06 1.966118424715e-05 1.460246831408e-05 2.599437963562e-02
4.200000000000e+02 9.745457113074e-05 2.592536694980e-04 1.956317804852e-06 1.967847126306e-05 1.462410572070e-05 2.597202098873e-02
4.400000000000e+02 9.733501389498e-05 2.589950965572e-04 1.954636157078e-06 1.969738851324e-05 1.464736483179e-05 2.594970600417e-02
4.600000000000e+02 9.721403112152e-05 2.587353654706e-04 1.952957703655e-06 1.971792486027e-05 1.467223465184e-05 2.592743393440e-02
4.800000000000e+02 9.709163172270e-05 2.584744819946e-04 1.951282406389e-06 1.974006910513e-05 1.469870407959e-05 2.590520427288e-02
5.000000000000e+02 9.696782546951e-05 2.582124537390e-04 1.949610239114e-06 1.976380991101e-05 1.472676184541e-05 2.588301667267e-02
5.200000000000e+02 9.684262279351e-05 2.579492896153e-04 1.947941183429e-06 1.978913574540e-05 1.475639646403e-05 2.586087088983e-02
5.400000000000e+02 9.671603465715e-05 2.576849994654e-04 1.946275225767e-06 1.981603483409e-05 1.478759619608e-05 2.583876674449e-02
5.600000000000e+02 9.658807247315e-05 2.574195938164e-04 1.944612355417e-06 1.984449512323e-05 1.482034901525e-05 2.581670409457e-02
5.800000000000e+02 9.645874805942e-05 2.571530837289e-04 1.942952563224e-06 1.987450424657e-05 1.485464257889e-05 2.579468281854e-02
6.000000000000e+02 9.632807361946e-05 2.568854807088e-04 1.941295840766e-06 1.990604949579e-05 1.489046420043e-05 2.577270280449e-02
6.200000000000e+02 9.619606174121e-05 2.566167966660e-04 1.939642179872e-06 1.993911779243e-05 1.492780082256e-05 2.575076394364e-02
6.400000000000e+02 9.606272540902e-05 2.563470439043e-04 1.937991572350e-06 1.997369565999e-05 1.496663899004e-05 2.572886612685e-02
6.600000000000e+02 9.592807802503e-05 2.560762351334e-04 1.936344009879e-06 2.000976919551e-05 1.500696482156e-05 2.570700924304e-02
6.800000000000e+02 9.579213343745e-05 2.558043834944e-04 1.934699483978e-06 2.004732403974e-05 1.504876397998e-05 2.568519317881e-02
7.000000000000e+02 9.565490597382e-05 2.555315025959e-04 1.933057986033e-06 2.008634534543e-05 1.509202164056e-05 2.566341781886e-02
7.200000000000e+02 9.551641047820e-05 2.552576065547e-04 1.931419507354e-06 2.012681774313e-05 1.513672245662e-05 2.564168304658e-02
7.400000000000e+02 9.537666235169e-05 2.549827100417e-04 1.929784039231e-06 2.016872530426e-05 1.518285052247e-05 2.561998874490e-02
7.600000000000e+02 9.523567759584e-05 2.547068283298e-04 1.928151572995e-06 2.021205150105e-05 1.523038933320e-05 2.559833479699e-02
7.800000000000e+02 9.509347285900e-05 2.544299773439e-04 1.926522100062e-06 2.025677916301e-05 1.527932174103e-05 2.557672108692e-02
8.000000000000e+02 9.495006548572e-05 2.541521737137e-04 1.924895611979e-06 2.030289042978e-05 1.532962990805e-05 2.555514750013e-02
8.200000000000e+02 9.480547356933e-05 2.538734348282e-04 1.923272100444e-06 2.035036669997e-05 1.538129525504e-05 2.553361392375e-02
8.400000000000e+02 9.465971600811e-05 2.535937788927e-04 1.921651557328e-06 2.039918857591e-05 1.543429840616e-05 2.551212024681e-02
8.600000000000e+02 9.451281256515e-05 2.533132249896e-04 1.920033974678e-06 2.044933580411e-05 1.548861912938e-05 2.549066636030e-02
8.800000000000e+02 9.436478393242e-05 2.530317931422e-04 1.918419344723e-06 2.050078721117e-05 1.554423627240e-05 2.546925215717e-02
9.000000000000e+02 9.421565179889e-05 2.527495043821e-04 1.916807659866e-06 2.055352063523e-05 1.560112769419e-05 2.544787753223e-02
9.200000000000e+02 9.406543892309e-05 2.524663808210e-04 1.915198912684e-06 2.060751285294e-05 1.565927019187e-05 2.542654238203e-02
9.400000000000e+02 9.391416918951e-05 2.521824457271e-04 1.913593095911e-06 2.066273950092e-05 1.571863942230e-05 2.540524660469e-02
9.600000000000e+02 9.376186772706e-05 2.518977236040e-04 1.911990202438e-06 2.071917499615e-05 1.577920982244e-05 2.538399009978e-02
9.800000000000e+02 9.360856097553e-05 2.516122402740e-04 1.910390225297e-06 2.077679245032e-05 1.584095452380e-05 2.536277276808e-02
1.000000000000e+03 9.345427677320e-05 2.513260229634e-04 1.908793157655e-06 2.083556358270e-05 1.590384526529e-05 2.534159451149e-02
1.020000000000e+03 9.329904444346e-05 2.510391003893e-04 1.907198992807e-06 2.089545863162e-05 1.596785230478e-05 2.532045523281e-02
1.040000000000e+03 9.314289488174e-05 2.507515028457e-04 1.905607724168e-06 2.095644626690e-05 1.603294433153e-05 2.529935483565e-02
1.060000000000e+03 9.298586063928e-05 2.504632622865e-04 1.904019345265e-06 2.101849350554e-05 1.609908838189e-05 2.527829322425e-02
1.080000000000e+03 9.282797600022e-05 2.501744124016e-04 1.902433849738e-06 2.108156563411e-05 1.616624976178e-05 2.525727030343e-02
1.100000000000e+03 9.266927704790e-05 2.498849886833e-04 1.900851231333e-06 2.114562614209e-05 1.623439198000e-05 2.523628597847e-02
1.120000000000e+03 9.250980171514e-05 2.495950284757e-04 1.899271483905e-06 2.121063667148e-05 1.630347669784e-05 2.521534015507e-02
1.140000000000e+03 9.234958981205e-05 2.493045710029e-04 1.897694601416e-06 2.127655698892e-05 1.637346370125e-05 2.519443273939e-02
1.160000000000e+03 9.218868302434e-05 2.490136573679e-04 1.896120577946e-06 2.134334498780e-05 1.644431090288e-05 2.517356363809e-02
1.180000000000e+03 9.202712487310e-05 2.487223305138e-04 1.894549407704e-06 2.141095672830e-05 1.651597438212e-05 2.515273275851e-02
1.200000000000e+03 9.186496063109e-05 2.484306351403e-04 1.892981085045e-06 2.147934652399e-05 1.658840847169e-05 2.513194000894e-02
1.220000000000e+03 9.170223718255e-05 2.481386175672e-04 1.891415604497e-06 2.154846708310e-05 1.666156589870e-05 2.511118529901e-02
1.240000000000e+03 9.153900282299e-05 2.478463255372e-04 1.889852960799e-06 2.161826971121e-05 1.673539798735e-05 2.509046854026e-02
1.260000000000e+03 9.137530699392e-05 2.475538079556e-04 1.888293148949e-06 2.168870457997e-05 1.680985492744e-05 2.506978964695e-02
1.280000000000e+03 9.121119995190e-05 2.472611145657e-04 1.886736164264e-06 2.175972106248e-05 1.688488610955e-05 2.504914853695e-02
1.300000000000e+03 9.104673237627e-05 2.469682955638e-04 1.885182002466e-06 2.183126813107e-05 1.696044052256e-05 2.502854513305e-02
1.320000000000e+03 9.088195492555e-05 2.466754011649e-04 1.883630659767e-06 2.190329480745e-05 1.703646720351e-05 2.500797936436e-02
1.340000000000e+03 9.071691775877e-05 2.463824811349e-04 1.882082132991e-06 2.197575064930e-05 1.711291572384e-05 2.498745116808e-02
1.360000000000e+03 9.055167004246e-05 2.460895843098e-04 1.880536419701e-06 2.204858625206e-05 1.718973669078e-05 2.496696049148e-02
1.380000000000e+03 9.038625946812e-05 2.457967581273e-04 1.878993518349e-06 2.212175374159e-05 1.726688223952e-05 2.494650729408e-02
1.400000000000e+03 9.022073180502e-05 2.455040481941e-04 1.877453428441e-06 2.219520723202e-05 1.734430649065e-05 2.492609155010e-02
1.420000000000e+03 9.005513051180e-05 2.452114979135e-04 1.875916150710e-06 2.226890322566e-05 1.742196594947e-05 2.490571325092e-02
1.440000000000e+03 8.988949642474e-05 2.449191481898e-04 1.874381687300e-06 2.234280093620e-05 1.749981982879e-05 2.488537240772e-02
1.460000000000e+03 8.972386753443e-05 2.446270372203e-04 1.872850041942e-06 2.241686252343e-05 1.757783028303e-05 2.486506905391e-02
1.480000000000e+03 8.955827885446e-05 2.443352003789e-04 1.871321220130e-06 2.249105323503e-05 1.765596254962e-05 2.484480324755e-02
1.500000000000e+03 8.939276237876e-05 2.440436701857e-04 1.869795229261e-06 2.256534145822e-05 1.773418500028e-05 2.482457507327e-02
1.520000000000e+03 8.922734711792e-05 2.437524763524e-04 1.868272078755e-06 2.263969869031e-05 1.781246911120e-05 2.480438464385e-02
1.540000000000e+03 8.906205920093e-05 2.434616458903e-04 1.866751780117e-06 2.271409944069e-05 1.789078936493e-05 2.478423210101e-02
1.560000000000e+03 8.889692202672e-05 2.431712032606e-04 1.865234346945e-06 2.278852107941e-05 1.796912309892e-05 2.476411761545e-02
1.580000000000e+03 8.873195644912e-05 2.428811705542e-04 1.863719794854e-06 2.286294364747e-05 1.804745031604e-05 2.474404138580e-02
1.600000000000e+03 8.856718098074e-05 2.425915676804e-04 1.862208141318e-06 2.293734964289e-05 1.812575347111e-05 2.472400363642e-02
1.620000000000e+03 8.840261200244e-05 2.423024125548e-04 1.860699405400e-06 2.301172379487e-05 1.820401724573e-05 2.470400461372e-02
1.640000000000e+03 8.823826396826e-05 2.420137212714e-04 1.859193607376e-06 2.308605283564e-05 1.828222832116e-05 2.468404458103e-02
1.660000000000e+03 8.807414959755e-05 2.417255082529e-04 1.857690768223e-06 2.316032527753e-05 1.836037515672e-05 2.466412381179e-02
1.680000000000e+03 8.791028004918e-05 2.414377863707e-04 1.856190908983e-06 2.323453120039e-05 1.843844777891e-05 2.464424258100e-02
1.700000000000e+03 8.774666507339e-05 2.411505670333e-04 1.854694049992e-06 2.330866205273e-05 1.851643758453e-05 2.462440115485e-02
1.720000000000e+03 8.758331314078e-05 2.408638602390e-04 1.853200209971e-06 2.338271046814e-05 1.859433715948e-05 2.460459977861e-02
1.740000000000e+03 8.742023154699e-05 2.405776745943e-04 1.851709404980e-06 2.345667009796e-05 1.867214011416e-05 2.458483866269e-02
1.760000000000e+03 8.725742649422e-05 2.402920172988e-04 1.850221647260e-06 2.353053545989e-05 1.874984093508e-05 2.456511796720e-02
1.780000000000e+03 8.709490315068e-05 2.400068940987e-04 1.848736943956e-06 2.360430180186e-05 1.882743485206e-05 2.454543778492e-02
1.800000000000e+03 8.693266569012e-05 2.397223092127e-04 1.847255295745e-06 2.367796498030e-05 1.890491772003e-05 2.452579812305e-02
1.820000000000e+03 8.677071731381e-05 2.394382652346e-04 1.845776695397e-06 2.375152135159e-05 1.898228591425e-05 2.450619888407e-02
1.840000000000e+03 8.660906025754e-05 2.391547630164e-04 1.844301126278e-06 2.382496767564e-05 1.905953623770e-05 2.448663984585e-02
1.860000000000e+03 8.644769578644e-05 2.388718015383e-04 1.842828560844e-06 2.389830103034e-05 1.913666583953e-05 2.446712064159e-02
1.880000000000e+03 8.628662418063e-05 2.385893777699e-04 1.841358959139e-06 2.397151873610e-05 1.921367214338e-05 2.444764073983e-02
1.900000000000e+03 8.612584471447e-05 2.383074865289e-04 1.839892267338e-06 2.404461828929e-05 1.929055278470e-05 2.442819942519e-02
1.920000000000e+03 8.596535563247e-05 2.380261203433e-04 1.838428416375e-06 2.411759730407e-05 1.936730555601e-05 2.440879578002e-02
1.940000000000e+03 8.580515412443e-05 2.377452693227e-04 1.836967320685e-06 2.419045346176e-05 1.944392835967e-05 2.438942866775e-02
1.960000000000e+03 8.564523630284e-05 2.374649210435e-04 1.835508877099e-06 2.426318446737e-05 1.952041916711e-05 2.437009671817e-02
1.980000000000e+03 8.548559718474e-05 2.371850604557e-04 1.834052963925e-06 2.433578801266e-05 1.959677598439e-05 2.435079831527e-02
2.000000000000e+03 8.532623068061e-05 2.369056698134e-04 1.832599440255e-06 2.440826174554e-05 1.967299682334e-05 2.433153158793e-02
2.020000000000e+03 8.516712959232e-05 2.366267286363e-04 1.831148145515e-06 2.448060324538e-05 1.974907967807e-05 2.431229440404e-02
2.040000000000e+03 8.500828562201e-05 2.363482137043e-04 1.829698899299e-06 2.455281000410e-05 1.982502250644e-05 2.429308436825e-02
2.060000000000e+03 8.484968939338e-05 2.360700990896e-04 1.828251501500e-06 2.462487941268e-05 1.990082321626e-05 2.427389882369e-02
2.080000000000e+03 8.469133048685e-05 2.357923562293e-04 1.826805732759e-06 2.469680875293e-05 1.997647965593e-05 2.425473485795e-02
2.100000000000e+03 8.453319748918e-05 2.355149540391e-04 1.825361355243e-06 2.476859519438e-05 2.005198960931e-05 2.423558931336e-02
2.120000000000e+03 8.437527805844e-05 2.352378590700e-04 1.823918113758e-06 2.484023579599e-05 2.012735079449e-05 2.421645880182e-02
2.140000000000e+03 8.421755900436e-05 2.349610357088e-04 1.822475737193e-06 2.491172751238e-05 2.020256086639e-05 2.419733972394e-02
2.160000000000e+03 8.406002638398e-05 2.346844464200e-04 1.821033940298e-06 2.498306720448e-05 2.027761742277e-05 2.417822829263e-02
2.180000000000e+03 8.390266561214e-05 2.344080520296e-04 1.819592425772e-06 2.505425165416e-05 2.035251801346e-05 2.415912056082e-02
2.200000000000e+03 8.374546158595e-05 2.341318120463e-04 1.818150886649e-06 2.512527758254e-05 2.042726015255e-05 2.414001245315e-02
2.220000000000e+03 8.358839882229e-05 2.338556850189e-04 1.816709008952e-06 2.519614167165e-05 2.050184133313e-05 2.412089980121e-02
2.240000000000e+03 8.343146160666e-05 2.335796289249e-04 1.815266474593e-06 2.526684058901e-05 2.057625904446e-05 2.410177838201e-02
2.260000000000e+03 8.327463415205e-05 2.333036015862e-04 1.813822964477e-06 2.533737101471e-05 2.065051079094e-05 2.408264395921e-02
2.280000000000e+03 8.311790076574e-05 2.330275611059e-04 1.812378161773e-06 2.540772967047e-05 2.072459411280e-05 2.406349232653e-02
2.300000000000e+03 8.296124602211e-05 2.327514663227e-04 1.810931755314e-06 2.547791335034e-05 2.079850660802e-05 2.404431935286e-02
2.320000000000e+03 8.280465493925e-05 2.324752772754e-04 1.809483443073e-06 2.554791895245e-05 2.087224595502e-05 2.402512102850e-02
2.340000000000e+03 8.264811315718e-05 2.321989556711e-04 1.808032935683e-06 2.561774351130e-05 2.094580993593e-05 2.400589351177e-02
2.360000000000e+03 8.249160711523e-05 2.319224653534e-04 1.806579959936e-06 2.568738423016e-05 2.101919645994e-05 2.398663317557e-02
2.380000000000e+03 8.233512422659e-05 2.316457727612e-04 1.805124262237e-06 2.575683851306e-05 2.109240358636e-05 2.396733665315e-02
2.400000000000e+03 8.217865304741e-05 2.313688473751e-04 1.803665611946e-06 2.582610399590e-05 2.116542954708e-05 2.394800088252e-02
2.420000000000e+03 8.202218343866e-05 2.310916621437e-04 1.802203804577e-06 2.589517857624e-05 2.123827276813e-05 2.392862314892e-02
2.440000000000e+03 8.186570671856e-05 2.308141938851e-04 1.800738664814e-06 2.596406044129e-05 2.131093188987e-05 2.390920112483e-02
2.460000000000e+03 8.170921580364e-05 2.305364236591e-04 1.799270049300e-06 2.603274809389e-05 2.138340578573e-05 2.388973290703e-02
2.480000000000e+03 8.155270533705e-05 2.302583371046e-04 1.797797849169e-06 2.610124037589e-05 2.145569357908e-05 2.387021705021e-02
2.500000000000e+03 8.139617180245e-05 2.299799247398e-04 1.796321992299e-06 2.616953648886e-05 2.152779465814e-05 2.385065259685e-02
2.520000000000e+03 8.123961362234e-05 2.297011822204e-04 1.794842445244e-06 2.623763601175e-05 2.159970868860e-05 2.383103910289e-02
2.540000000000e+03 8.108303123999e-05 2.294221105554e-04 1.793359214849e-06 2.630553891540e-05 2.167143562399e-05 2.381137665918e-02
2.560000000000e+03 8.092642718419e-05 2.291427162761e-04 1.791872349515e-06 2.637324557364e-05 2.174297571348e-05 2.379166590827e-02
2.580000000000e+03 8.076980611651e-05 2.288630115594e-04 1.790381940121e-06 2.644075677107e-05 2.181432950733e-05 2.377190805661e-02
2.600000000000e+03 8.061317486089e-05 2.285830143047e-04 1.788888120587e-06 2.650807370734e-05 2.188549785964e-05 2.375210488211e-02
2.620000000000e+03 8.045654241567e-05 2.283027481634e-04 1.787391068094e-06 2.657519799800e-05 2.195648192868e-05 2.373225873695e-02
2.640000000000e+03 8.029991994853e-05 2.280222425236e-04 1.785891002956e-06 2.664213167202e-05 2.202728317473e-05 2.371237254596e-02
2.660000000000e+03 8.014332077489e-05 2.277415324508e-04 1.784388188164e-06 2.670887716611e-05 2.209790335559e-05 2.369244980056e-02
2.680000000000e+03 7.998676032058e-05 2.274606585872e-04 1.782882928621e-06 2.677543731596e-05 2.216834451973e-05 2.367249454854e-02
2.700000000000e+03 7.983025606990e-05 2.271796670115e-04 1.781375570075e-06 2.684181534457e-05 2.223860899746e-05 2.365251138001e-02
2.720000000000e+03 7.967382750019e-05 2.268986090641e-04 1.779866497796e-06 2.690801484805e-05 2.230869939007e-05 2.363250540969e-02
2.740000000000e+03 7.951749600422e-05 2.266175411388e-04 1.778356134995e-06 2.697403977899e-05 2.237861855733e-05 2.361248225606e-02
2.760000000000e+03 7.936128480197e-05 2.263365244476e-04 1.776844941048e-06 2.703989442778e-05 2.244836960337e-05 2.359244801768e-02
2.780000000000e+03 7.920521884319e-05 2.260556247599e-04 1.775333409520e-06 2.710558340215e-05 2.251795586135e-05 2.357240924700e-02
2.800000000000e+03 7.904932470246e-05 2.257749121226e-04 1.773822066053e-06 2.717111160527e-05 2.258738087695e-05 2.355237292232e-02
2.820000000000e+03 7.889363046821e-05 2.254944605642e-04 1.772311466122e-06 2.723648421271e-05 2.265664839121e-05 2.353234641802e-02
2.840000000000e+03 7.873816562755e-05 2.252143477875e-04 1.770802192721e-06 2.730170664856e-05 2.272576232256e-05 2.351233747375e-02
2.860000000000e+03 7.858296094829e-05 2.249346548549e-04 1.769294853981e-06 2.736678456111e-05 2.279472674868e-05 2.349235416292e-02
